Neuer Abranzer old aceton_1,,Neuer Abranzer old aceton_2,,Neuer Abranzer old aceton_3,,
Wavelength (nm),Abs,Wavelength (nm),Abs,Wavelength (nm),Abs,
1100.051758,-0.06027768925,1100.051758,-0.03035525046,1100.051758,-0.04741804302,
1098.996338,-0.02131252922,1098.996338,-0.0247290805,1098.996338,-0.03632579371,
1098.057617,-0.03386792168,1098.057617,-0.05060975254,1098.057617,-0.02483651415,
1097.00061,-0.04069434106,1097.00061,-0.04147810861,1097.00061,-0.019962525,
1095.942871,-0.04766263813,1095.942871,-0.050198365,1095.942871,-0.05259110034,
1095.001831,-0.04680806771,1095.001831,-0.04980297759,1095.001831,-0.05323331803,
1093.942505,-0.02323570475,1093.942505,-0.02069440298,1093.942505,-0.06184636801,
1093,-0.02496425621,1093,-0.03315692022,1093,-0.03448203206,
1092.056885,-0.05685688555,1092.056885,-0.04210031033,1092.056885,-0.02764606476,
1090.995117,-0.04884274676,1090.995117,-0.0347102657,1090.995117,-0.05989845842,
1090.050659,-0.01641764678,1090.050659,-0.0296378918,1090.050659,-0.04059561715,
1088.987183,-0.005737813655,1088.987183,-0.03195970878,1088.987183,-0.03002355807,
1088.04126,-0.04954849929,1088.04126,-0.03714518994,1088.04126,-0.02032609843,
1086.976318,-0.02902056649,1086.976318,-0.0404080078,1086.976318,-0.03953297809,
1086.028931,-0.03859460354,1086.028931,-0.04516936839,1086.028931,-0.02501939051,
1084.96228,-0.03739829734,1084.96228,-0.05517718196,1084.96228,-0.04660657048,
1084.01355,-0.03773931041,1084.01355,-0.0425888598,1084.01355,-0.03246051446,
1082.945313,-0.03484077752,1082.945313,-0.02614407986,1082.945313,-0.02464720421,
1081.995117,-0.05090896413,1081.995117,-0.04148695618,1081.995117,-0.053835392,
1081.044189,-0.02062617801,1081.044189,-0.04004595056,1081.044189,-0.05207391456,
1079.973633,-0.07235071063,1079.973633,-0.07430437952,1079.973633,-0.05345946178,
1079.021362,-0.03598862514,1079.021362,-0.04803013057,1079.021362,-0.04825932533,
1077.949219,-0.05242686346,1077.949219,-0.04277834669,1077.949219,-0.02790335938,
1076.995483,-0.03921375796,1076.995483,-0.04909731448,1076.995483,-0.05971620604,
1076.041138,-0.03064814396,1076.041138,-0.05677998438,1076.041138,-0.02589359321,
1074.966675,-0.01891820505,1074.966675,-0.0210908521,1074.966675,-0.03077674471,
1074.010864,-0.05628477409,1074.010864,-0.04867685586,1074.010864,-0.05793434009,
1073.054443,-0.04233739898,1073.054443,-0.04719337448,1073.054443,-0.02805937082,
1071.977539,-0.03210196272,1071.977539,-0.04448318854,1071.977539,-0.03963029012,
1071.019775,-0.04673499241,1071.019775,-0.04912958667,1071.019775,-0.04364321381,
1069.941406,-0.04809367284,1069.941406,-0.04305712134,1069.941406,-0.04286405072,
1068.982056,-0.0536538735,1068.982056,-0.06004817039,1068.982056,-0.05154424906,
1068.022217,-0.03246973827,1068.022217,-0.03612989932,1068.022217,-0.05983585119,
1066.941528,-0.05857509002,1066.941528,-0.0453421548,1066.941528,-0.03135444596,
1065.980103,-0.05729296058,1065.980103,-0.0533882305,1065.980103,-0.04236787558,
1065.018188,-0.04282056913,1065.018188,-0.03290243447,1065.018188,-0.0453629531,
1064.055542,-0.05277260393,1064.055542,-0.0528075844,1064.055542,-0.02451780252,
1062.971802,-0.03942802921,1062.971802,-0.04198747501,1062.971802,-0.04476582259,
1062.007813,-0.03896994144,1062.007813,-0.03589368612,1062.007813,-0.02171274833,
1061.043091,-0.03519917652,1061.043091,-0.03633650765,1061.043091,-0.04329809174,
1059.957031,-0.04856307805,1059.957031,-0.03674187139,1059.957031,-0.03460348025,
1058.990967,-0.0404619202,1058.990967,-0.05046163499,1058.990967,-0.03987316787,
1058.024292,-0.05377126485,1058.024292,-0.04700854793,1058.024292,-0.05123111606,
1057.056885,-0.03904665262,1057.056885,-0.04328482971,1057.056885,-0.04209316894,
1055.967773,-0.02995668538,1055.967773,-0.04100277275,1055.967773,-0.03093413822,
1054.999023,-0.04712983966,1054.999023,-0.05393527076,1054.999023,-0.0435275957,
1054.029663,-0.03520710021,1054.029663,-0.04073676839,1054.029663,-0.04267737269,
1053.05957,-0.03625617176,1053.05957,-0.04497139901,1053.05957,-0.0496744886,
1051.967407,-0.05138720572,1051.967407,-0.04183606058,1051.967407,-0.04732914641,
1050.995972,-0.04382171109,1050.995972,-0.03573097661,1050.995972,-0.04067883268,
1050.023926,-0.04243567958,1050.023926,-0.03691542521,1050.023926,-0.04045243934,
1049.051147,-0.04061574861,1049.051147,-0.04553729668,1049.051147,-0.03416056186,
1047.956055,-0.04597780108,1047.956055,-0.04056303576,1047.956055,-0.03738860786,
1046.981934,-0.04308483005,1046.981934,-0.04136459529,1046.981934,-0.03783868626,
1046.007202,-0.02894046344,1046.007202,-0.03859659284,1046.007202,-0.04090420902,
1045.03186,-0.04199368134,1045.03186,-0.03976915404,1045.03186,-0.04350858182,
1044.055786,-0.04130985215,1044.055786,-0.04986649379,1044.055786,-0.04533837736,
1042.956909,-0.05121574923,1042.956909,-0.04260125011,1042.956909,-0.04625146091,
1041.979492,-0.03919753432,1041.979492,-0.04257905111,1041.979492,-0.0389756225,
1041.001465,-0.04429121688,1041.001465,-0.04198531434,1041.001465,-0.04068312049,
1040.022827,-0.04387342557,1040.022827,-0.04318453744,1040.022827,-0.04504425824,
1039.043457,-0.04019907862,1039.043457,-0.03771372512,1039.043457,-0.03868218139,
1037.940918,-0.03941838443,1037.940918,-0.0435330756,1037.940918,-0.04363530129,
1036.960205,-0.03896042705,1036.960205,-0.03939871863,1036.960205,-0.04669054598,
1035.978882,-0.04243154824,1035.978882,-0.04450524598,1035.978882,-0.04430482164,
1034.996948,-0.04826233536,1034.996948,-0.04597966373,1034.996948,-0.05365561321,
1034.014282,-0.04543332383,1034.014282,-0.04724487662,1034.014282,-0.04188006371,
1033.031006,-0.03788670525,1033.031006,-0.04689712077,1033.031006,-0.0422003381,
1032.047119,-0.04247643426,1032.047119,-0.04069533199,1032.047119,-0.04639194906,
1030.939575,-0.04538207501,1030.939575,-0.04257257283,1030.939575,-0.04475447536,
1029.954224,-0.04171158746,1029.954224,-0.04335001111,1029.954224,-0.04742602631,
1028.968384,-0.03891536966,1028.968384,-0.04046536237,1028.968384,-0.04436699674,
1027.981934,-0.04471164569,1027.981934,-0.04413723573,1027.981934,-0.04337545112,
1026.994751,-0.04299569875,1026.994751,-0.0452721417,1026.994751,-0.0437695235,
1026.006958,-0.04175193608,1026.006958,-0.04136106372,1026.006958,-0.04159987345,
1025.018555,-0.04218784347,1025.018555,-0.04345199838,1025.018555,-0.0421740301,
1024.029541,-0.04564949125,1024.029541,-0.04238745943,1024.029541,-0.04328403622,
1023.039856,-0.04814641178,1023.039856,-0.04686537758,1023.039856,-0.04696910083,
1022.0495,-0.04214640334,1022.0495,-0.04670528322,1022.0495,-0.04650071263,
1021.058594,-0.04136012495,1021.058594,-0.04399339855,1021.058594,-0.04387393966,
1019.943054,-0.0465744324,1019.943054,-0.04178767651,1019.943054,-0.04322578385,
1018.950745,-0.04256266728,1018.950745,-0.0446510613,1018.950745,-0.04474401101,
1017.957886,-0.04421654716,1017.957886,-0.04447122291,1017.957886,-0.04196933284,
1016.964355,-0.0398636274,1016.964355,-0.04214668646,1016.964355,-0.0435557887,
1015.970154,-0.04960724711,1015.970154,-0.04595474899,1015.970154,-0.0406650193,
1014.975403,-0.04826386645,1014.975403,-0.04440780357,1014.975403,-0.04606758058,
1013.97998,-0.03993083164,1013.97998,-0.04233491048,1013.97998,-0.04235942289,
1012.983948,-0.04585833102,1012.983948,-0.04361732304,1012.983948,-0.04346024245,
1011.987305,-0.04627296329,1011.987305,-0.04432876036,1011.987305,-0.03996766731,
1010.98999,-0.0433010906,1010.98999,-0.04690455645,1010.98999,-0.04413194954,
1009.992065,-0.04154506698,1009.992065,-0.04252253473,1009.992065,-0.04067246616,
1008.993591,-0.04073011875,1008.993591,-0.04169051722,1008.993591,-0.03989971057,
1007.994385,-0.04181198776,1007.994385,-0.04281859845,1007.994385,-0.04255562648,
1006.994629,-0.04402712733,1006.994629,-0.04247211292,1006.994629,-0.04343443364,
1005.994263,-0.04290851578,1005.994263,-0.03988979384,1005.994263,-0.04028010368,
1004.993225,-0.0388944447,1004.993225,-0.04113771394,1004.993225,-0.04060165212,
1003.991577,-0.04372818768,1003.991577,-0.0436793603,1003.991577,-0.04103795812,
1002.989319,-0.04149688408,1002.989319,-0.04135522991,1002.989319,-0.04028260335,
1001.98645,-0.04314877465,1001.98645,-0.0425652042,1001.98645,-0.04361048713,
1000.982971,-0.04315135255,1000.982971,-0.04393374175,1000.982971,-0.04071249068,
999.9788818,-0.03950286657,999.9788818,-0.04178570211,999.9788818,-0.04113168642,
998.9741211,-0.04377200454,998.9741211,-0.04523785412,998.9741211,-0.0442869179,
997.968811,-0.04456397891,997.968811,-0.04433151707,997.968811,-0.04264316335,
996.9628296,-0.03868033364,996.9628296,-0.03815711662,996.9628296,-0.04015499353,
995.9562988,-0.04262983426,995.9562988,-0.04239051044,995.9562988,-0.04049927369,
994.9490967,-0.04215190187,994.9490967,-0.04233946651,994.9490967,-0.04122958332,
993.9412842,-0.0421433486,993.9412842,-0.04054638743,993.9412842,-0.04170448333,
993.05896,-0.04137645662,993.05896,-0.04102674872,993.05896,-0.04038371146,
992.0500488,-0.03863974661,992.0500488,-0.03943800554,992.0500488,-0.03924299031,
991.0404663,-0.04009514302,991.0404663,-0.03972446173,991.0404663,-0.04013828561,
990.0302734,-0.03863415495,990.0302734,-0.03972224146,990.0302734,-0.03798808903,
989.0195313,-0.03766127303,989.0195313,-0.04243601114,989.0195313,-0.04048455879,
988.0081177,-0.03964111209,988.0081177,-0.040904589,988.0081177,-0.03850729391,
986.9961548,-0.03956389055,986.9961548,-0.04043928161,986.9961548,-0.04128348827,
985.9835205,-0.03910670057,985.9835205,-0.04071861878,985.9835205,-0.03961790726,
984.9703369,-0.03892422095,984.9703369,-0.03934013098,984.9703369,-0.03891598433,
983.9564819,-0.03990041837,983.9564819,-0.03908890858,983.9564819,-0.03780613095,
982.9420776,-0.03894443065,982.9420776,-0.03960160539,982.9420776,-0.03813587129,
982.0539551,-0.0378967151,982.0539551,-0.03721219674,982.0539551,-0.03817575052,
981.0383911,-0.03785088286,981.0383911,-0.03780855238,981.0383911,-0.03741002828,
980.0222168,-0.03759238869,980.0222168,-0.03753066063,980.0222168,-0.03675927967,
979.0054321,-0.03834295273,979.0054321,-0.03708763048,979.0054321,-0.03685445711,
977.9880371,-0.03572563455,977.9880371,-0.03459071368,977.9880371,-0.0355476439,
976.9700928,-0.03711258247,976.9700928,-0.03686306626,976.9700928,-0.03494416177,
975.9514771,-0.03559753671,975.9514771,-0.0353807956,975.9514771,-0.03549282998,
975.0597534,-0.03463579714,975.0597534,-0.03416324034,975.0597534,-0.03418520838,
974.0400391,-0.03610431775,974.0400391,-0.03484880179,974.0400391,-0.03686035424,
973.0197144,-0.03510788456,973.0197144,-0.03370416164,973.0197144,-0.03387500718,
971.9987793,-0.03349662945,971.9987793,-0.03482620418,971.9987793,-0.03339328244,
970.9772949,-0.03520557284,970.9772949,-0.03449106961,970.9772949,-0.03463374078,
969.9551392,-0.03305123746,969.9551392,-0.0346403867,969.9551392,-0.03363890946,
969.0603027,-0.03208638355,969.0603027,-0.03430788592,969.0603027,-0.03283758834,
968.0371094,-0.03346475586,968.0371094,-0.03182683885,968.0371094,-0.03345598653,
967.0132446,-0.02937155776,967.0132446,-0.03066174872,967.0132446,-0.03044604883,
965.9888306,-0.029995922,965.9888306,-0.03230146319,965.9888306,-0.0333246775,
964.9638062,-0.02797647007,964.9638062,-0.02976712957,964.9638062,-0.02960452437,
963.9382324,-0.02998606488,963.9382324,-0.02737451904,963.9382324,-0.0292458795,
963.0402832,-0.02991256677,963.0402832,-0.03084290959,963.0402832,-0.0300740432,
962.0135498,-0.02836773545,962.0135498,-0.03029847331,962.0135498,-0.0286161229,
960.9862671,-0.03069913387,960.9862671,-0.02969040349,960.9862671,-0.02877076343,
959.958313,-0.02829512767,959.958313,-0.02673225664,959.958313,-0.02764960937,
959.0584106,-0.02636518888,959.0584106,-0.02910694852,959.0584106,-0.02843674459,
958.0294189,-0.02924070135,958.0294189,-0.030439822,958.0294189,-0.02787301503,
956.9998169,-0.02678151801,956.9998169,-0.02763503604,956.9998169,-0.02631563693,
955.9696045,-0.02576714754,955.9696045,-0.02708237618,955.9696045,-0.02667509951,
954.9387817,-0.0249525737,954.9387817,-0.02485191636,954.9387817,-0.02584393695,
954.036377,-0.026089333,954.036377,-0.02504187077,954.036377,-0.02496782504,
953.0044556,-0.02379116975,953.0044556,-0.02370342985,953.0044556,-0.02503077686,
951.9719849,-0.02279326506,951.9719849,-0.02376778983,951.9719849,-0.02291389927,
950.9389038,-0.02153187431,950.9389038,-0.02257086895,950.9389038,-0.0231540855,
950.0344849,-0.02247885056,950.0344849,-0.02167891338,950.0344849,-0.02227301709,
949.0003052,-0.01885168441,949.0003052,-0.02144264057,949.0003052,-0.01953173615,
947.9655762,-0.01851470768,947.9655762,-0.02069114521,947.9655762,-0.01962754689,
947.0596313,-0.01937941276,947.0596313,-0.01986935921,947.0596313,-0.01951545104,
946.0238037,-0.01707070693,946.0238037,-0.01638863236,946.0238037,-0.01511187479,
944.9873657,-0.01658581384,944.9873657,-0.01822021417,944.9873657,-0.01776493154,
943.9503784,-0.01600662805,943.9503784,-0.01644830406,943.9503784,-0.01397971716,
943.0424805,-0.01513887476,943.0424805,-0.01352217328,943.0424805,-0.013836517,
942.0043945,-0.01297782827,942.0043945,-0.01379875373,942.0043945,-0.01409059577,
940.9656982,-0.01113561355,940.9656982,-0.01222486701,940.9656982,-0.01159829926,
940.0563354,-0.01264797803,940.0563354,-0.01232124772,940.0563354,-0.01338805817,
939.0166016,-0.009512674063,939.0166016,-0.01160742249,939.0166016,-0.01173342112,
937.9761963,-0.008650206961,937.9761963,-0.009518094361,937.9761963,-0.008957750164,
936.9353027,-0.006982326508,936.9353027,-0.007773869671,936.9353027,-0.007303270977,
936.0239868,-0.006579919253,936.0239868,-0.00687165698,936.0239868,-0.007050588727,
934.9819946,-0.00628609769,934.9819946,-0.008091434836,934.9819946,-0.005723864771,
933.9393921,-0.003895041533,933.9393921,-0.00572294509,933.9393921,-0.005589262117,
933.0266113,-0.004263494164,933.0266113,-0.003582350444,933.0266113,-0.003303037491,
931.9829712,-0.001317201182,931.9829712,-0.001992524602,931.9829712,-0.002562436275,
930.9387207,0.001687388984,930.9387207,-0.002012158977,930.9387207,-0.0007572805043,
930.0245361,0.001378256828,930.0245361,-0.001216849778,930.0245361,0.0005085686571,
928.979187,0.001792934025,928.979187,0.00296479906,928.979187,0.001902612508,
928.0640869,0.003023314988,928.0640869,0.003359498223,928.0640869,0.002273473423,
927.0176392,0.005002246704,927.0176392,0.003735417966,927.0176392,0.002889951691,
925.9707031,0.004675491713,925.9707031,0.004407371394,925.9707031,0.004794145003,
925.0541382,0.006476258859,925.0541382,0.005966037977,925.0541382,0.006433906034,
924.0061035,0.007359545678,924.0061035,0.00708676409,924.0061035,0.007280120626,
922.9574585,0.007867822424,922.9574585,0.005477937404,922.9574585,0.005986088887,
922.0394897,0.009731880389,922.0394897,0.008999790065,922.0394897,0.008274841122,
920.9898071,0.009848667309,920.9898071,0.00925954897,920.9898071,0.009885051288,
919.9395752,0.01296450943,919.9395752,0.01260442194,919.9395752,0.01310255099,
919.0201416,0.01377893239,919.0201416,0.01289850567,919.0201416,0.01312818937,
917.968811,0.0142328823,917.968811,0.01376963407,917.968811,0.01272305008,
917.0484619,0.01531223487,917.0484619,0.01463785395,917.0484619,0.01479445305,
915.9960938,0.01633680798,915.9960938,0.01580859534,915.9960938,0.01466476172,
914.9431763,0.01719108596,914.9431763,0.0166205205,914.9431763,0.01664911024,
914.0213623,0.01819413714,914.0213623,0.01782494225,914.0213623,0.01738805138,
912.9674072,0.01957591437,912.9674072,0.01760179177,912.9674072,0.01781566441,
912.0446777,0.01972363144,912.0446777,0.0192475915,912.0446777,0.018363446,
910.989624,0.02145011723,910.989624,0.01894304156,910.989624,0.01941341348,
909.934021,0.02054875158,909.934021,0.01982208341,909.934021,0.01888244972,
909.0099487,0.02121117897,909.0099487,0.01919328794,909.0099487,0.02025302313,
907.9532471,0.02216899954,907.9532471,0.02268027328,907.9532471,0.02241604403,
907.0282593,0.02441153675,907.0282593,0.02247598581,907.0282593,0.02214527316,
905.97052,0.02519168518,905.97052,0.02472323738,905.97052,0.02400837839,
905.0445557,0.02526842058,905.0445557,0.02448911965,905.0445557,0.02531758882,
903.9858398,0.02540886402,903.9858398,0.02512906305,903.9858398,0.0248185806,
903.05896,0.02489346638,903.05896,0.02493266948,903.05896,0.02489593253,
901.9991455,0.02606165409,901.9991455,0.02455044538,901.9991455,0.02475080453,
900.9387817,0.02618552744,900.9387817,0.02518024668,900.9387817,0.02529871091,
900.0105591,0.02676313743,900.0105591,0.02598651126,900.0105591,0.02527009323,
898.9491577,0.02625757083,898.9491577,0.02650051191,898.9491577,0.02393952571,
898.0199585,0.02671030723,898.0199585,0.02639082447,898.0199585,0.02669065259,
896.9575195,0.02597796544,896.9575195,0.0260251537,896.9575195,0.0261264462,
896.0274658,0.02666744962,896.0274658,0.02564064972,896.0274658,0.02628289722,
894.9639893,0.02633319981,894.9639893,0.02628355846,894.9639893,0.02618602291,
894.032959,0.02664564922,894.032959,0.02468950674,894.032959,0.02549966425,
892.9684448,0.02512451075,892.9684448,0.02361100353,892.9684448,0.02414228581,
892.0365601,0.02466112003,892.0365601,0.02487345599,892.0365601,0.02505852468,
890.9710083,0.02521815896,890.9710083,0.02527922951,890.9710083,0.02416313812,
890.038269,0.02551503666,890.038269,0.02622011863,890.038269,0.02565649338,
888.9716797,0.02538666129,888.9716797,0.02478382736,888.9716797,0.02549444698,
888.0379639,0.02419660985,888.0379639,0.02441115491,888.0379639,0.0229931064,
886.9703979,0.02395842597,886.9703979,0.02402550355,886.9703979,0.02374831587,
886.0357666,0.02384082042,886.0357666,0.02351584285,886.0357666,0.02330206893,
884.9671631,0.02388720214,884.9671631,0.02321735211,884.9671631,0.02353606559,
884.0316772,0.02234466188,884.0316772,0.02294117026,884.0316772,0.02268673666,
882.9620361,0.02270285599,882.9620361,0.02179213986,882.9620361,0.02223700099,
882.0256348,0.02270637453,882.0256348,0.02262916416,882.0256348,0.02233256213,
880.9550171,0.02167786658,880.9550171,0.02158930339,880.9550171,0.02183520049,
880.0177002,0.02111898735,880.0177002,0.02087262645,880.0177002,0.02137584798,
878.9460449,0.02050470375,878.9460449,0.01886311918,878.9460449,0.01996703818,
878.0078735,0.01985790394,878.0078735,0.02041182294,878.0078735,0.02155497111,
876.9351807,0.01963952929,876.9351807,0.02018644474,876.9351807,0.02080378123,
875.9960938,0.01839733683,875.9960938,0.01874223351,875.9960938,0.01941392943,
875.0566406,0.01963237859,875.0566406,0.01762198284,875.0566406,0.01789140329,
873.9824829,0.01649764925,873.9824829,0.0171721261,873.9824829,0.01763538085,
873.0421143,0.01383371279,873.0421143,0.01614308544,873.0421143,0.0150730852,
871.9669189,0.01789938845,871.9669189,0.01665470563,871.9669189,0.01782081649,
871.0256958,0.01715093292,871.0256958,0.01667947881,871.0256958,0.01550596207,
869.9495239,0.01696844958,869.9495239,0.01662398875,869.9495239,0.01447100751,
869.0073853,0.0138671184,869.0073853,0.01661449485,869.0073853,0.01725499891,
868.0648804,0.01480894256,868.0648804,0.01383055933,868.0648804,0.0164638795,
866.9871826,0.01371277776,866.9871826,0.0135384351,866.9871826,0.0146743739,
866.0437622,0.01144243497,866.0437622,0.01473339181,866.0437622,0.01288890559,
864.9650879,0.01237805095,864.9650879,0.01422576699,864.9650879,0.01311346237,
864.020813,0.01346740406,864.020813,0.01494714245,864.020813,0.01492276229,
862.9411621,0.0125039164,862.9411621,0.01224993169,862.9411621,0.01159950718,
861.9960327,0.0108184563,861.9960327,0.01127782185,861.9960327,0.01054906379,
861.0504761,0.01072181202,861.0504761,0.0129075991,861.0504761,0.01120854076,
859.9692993,0.009970543906,859.9692993,0.01166433096,859.9692993,0.01110710949,
859.0228882,0.01087090001,859.0228882,0.01216753107,859.0228882,0.01091711223,
857.9407349,0.01008985844,857.9407349,0.0093437545,857.9407349,0.01075665094,
856.9934692,0.01076140068,856.9934692,0.01074837241,856.9934692,0.008514499292,
856.0457764,0.01083400752,856.0457764,0.01093391515,856.0457764,0.009882297367,
854.9621582,0.008361442015,854.9621582,0.00843863748,854.9621582,0.009478056803,
854.0136108,0.009404988028,854.0136108,0.01134100277,854.0136108,0.01045791525,
853.0646362,0.01004802529,853.0646362,0.0101394318,853.0646362,0.01063099876,
851.9796143,0.007464740425,851.9796143,0.008180924691,851.9796143,0.009458531626,
851.0297852,0.008641310036,851.0297852,0.009826556779,851.0297852,0.008168051951,
849.9437256,0.008635659702,849.9437256,0.008733821101,849.9437256,0.009465780109,
848.993042,0.008121736348,848.993042,0.009615311399,848.993042,0.008737994358,
848.0419922,0.008958194405,848.0419922,0.007272091694,848.0419922,0.007965810597,
846.9545288,0.007895685732,846.9545288,0.007877390832,846.9545288,0.01031108946,
846.0025635,0.01007295493,846.0025635,0.01023947168,846.0025635,0.009814085439,
845.0502319,0.006629284471,845.0502319,0.007308998145,845.0502319,0.008878343739,
843.9613037,0.007972402498,843.9613037,0.009837836958,843.9613037,0.009609409608,
843.0081177,0.007119208109,843.0081177,0.007278093603,843.0081177,0.006731594447,
842.0545044,0.008944665082,842.0545044,0.009674677625,842.0545044,0.008177891374,
840.9641724,0.005960552953,840.9641724,0.007010309026,840.9641724,0.008172694594,
840.0097656,0.006566627882,840.0097656,0.004793281667,840.0097656,0.005604231264,
839.0548706,0.007906519808,839.0548706,0.007914349437,839.0548706,0.009235327132,
837.9631348,0.008454341441,837.9631348,0.008321675472,837.9631348,0.008804425597,
837.0074463,0.008159480058,837.0074463,0.009184639901,837.0074463,0.0085543897,
836.0513306,0.006390637718,836.0513306,0.007185102906,836.0513306,0.007038747892,
834.9581909,0.007250507362,834.9581909,0.007589216344,834.9581909,0.007822882384,
834.0012207,0.007382952608,834.0012207,0.00825070031,834.0012207,0.008725739084,
833.0439453,0.00827529002,833.0439453,0.009024976753,833.0439453,0.009429933503,
831.9493408,0.008511648513,831.9493408,0.009057670832,831.9493408,0.008510487154,
830.9911499,0.006884552073,830.9911499,0.008560884744,830.9911499,0.007152601611,
830.0325928,0.009214543737,830.0325928,0.008502936922,830.0325928,0.01020594593,
828.9365845,0.007605364546,828.9365845,0.008755664341,828.9365845,0.008704742417,
827.9771729,0.007644564845,827.9771729,0.009022677317,827.9771729,0.009285544045,
827.017395,0.008115089498,827.017395,0.00900349021,827.017395,0.009020061232,
826.0571899,0.009572306648,826.0571899,0.009874538518,826.0571899,0.009337485768,
824.9594116,0.008333417587,824.9594116,0.009145881981,824.9594116,0.00972759258,
823.9983521,0.008839217015,823.9983521,0.009162563831,823.9983521,0.009053654037,
823.0369263,0.008714382537,823.0369263,0.009337274358,823.0369263,0.009517849423,
821.9376831,0.009549575858,821.9376831,0.008721063845,821.9376831,0.009237178601,
820.9754639,0.009002512321,820.9754639,0.01054304279,820.9754639,0.01054704748,
820.0128174,0.009223164059,820.0128174,0.008363632485,820.0128174,0.0101361461,
819.0498047,0.00997737702,819.0498047,0.009521077387,819.0498047,0.008899269626,
817.9487305,0.008978383616,817.9487305,0.01033348963,817.9487305,0.009668298066,
816.9849243,0.01081760693,816.9849243,0.009388587438,816.9849243,0.01052476931,
816.0206909,0.01016206108,816.0206909,0.01026539225,816.0206909,0.009488083422,
815.0560303,0.009345949627,815.0560303,0.008989905939,815.0560303,0.01031763759,
813.953186,0.01003578678,813.953186,0.01110360399,813.953186,0.01094286144,
812.9877319,0.008289299905,812.9877319,0.009165683761,812.9877319,0.01117122173,
812.0219116,0.01073850133,812.0219116,0.01115151402,812.0219116,0.009942494333,
811.0556641,0.01094498485,811.0556641,0.009871757589,811.0556641,0.01162096392,
809.9509888,0.009557170793,809.9509888,0.01165084913,809.9509888,0.01065593585,
808.9839478,0.009477315471,808.9839478,0.009358698502,808.9839478,0.01038786396,
808.0165405,0.008889969438,808.0165405,0.009823194705,808.0165405,0.01017077919,
807.0487671,0.01113260444,807.0487671,0.009704561904,807.0487671,0.01105280407,
805.9422607,0.009110960178,805.9422607,0.01088679861,805.9422607,0.009721688926,
804.9736328,0.008517958224,804.9736328,0.009381789714,804.9736328,0.009912434965,
804.0046387,0.009253414348,804.0046387,0.01005729754,804.0046387,0.009520733729,
803.0352783,0.009394460358,803.0352783,0.008301806636,803.0352783,0.00886225421,
802.0654907,0.007632630412,802.0654907,0.007911502384,802.0654907,0.007975354791,
800.9567871,0.007886433043,800.9567871,0.009539837949,800.9567871,0.008942894638,
799.9862061,0.007598646916,799.9862061,0.009270364419,799.9862061,0.01021172293,
799.0152588,0.007539906073,799.0152588,0.007145996206,799.0152588,0.007969423197,
798.0439453,0.00707792351,798.0439453,0.006322604604,798.0439453,0.007897530682,
796.9334106,0.005493351724,796.9334106,0.006618955173,796.9334106,0.006365655921,
795.9613037,0.00700349547,795.9613037,0.007088421844,795.9613037,0.006943598855,
794.9888306,0.006490999367,794.9888306,0.005674145184,794.9888306,0.007215606049,
794.0159302,0.00417840993,794.0159302,0.005320678465,794.0159302,0.00573415542,
793.0427246,0.005113000516,793.0427246,0.004050413612,793.0427246,0.005619728938,
792.0690918,0.005660769995,792.0690918,0.004377718084,792.0690918,0.005563484039,
790.9559326,0.004695430864,790.9559326,0.004587844014,790.9559326,0.005225223955,
789.9815063,0.005158473272,789.9815063,0.00396741135,789.9815063,0.005185429007,
789.0067139,0.002215864835,789.0067139,0.002623582259,789.0067139,0.003590768902,
788.0315552,0.003900957992,788.0315552,0.002853913931,788.0315552,0.004507668316,
787.0560303,0.002094948431,787.0560303,0.003551749745,787.0560303,0.003155493876,
785.9406738,0.0008617699496,785.9406738,0.001950896578,785.9406738,0.001409186167,
784.9642944,0.000454666093,784.9642944,0.001054683235,784.9642944,0.002255883068,
783.9876099,0.0008284935611,783.9876099,0.0009279931546,783.9876099,0.0007603407139,
783.0105591,-0.0008475591312,783.0105591,-4.452158464E-5,783.0105591,-0.001433938975,
782.0330811,-0.001033793204,782.0330811,-0.001193720149,782.0330811,-0.000379374309,
781.0552979,-0.001656644628,781.0552979,0.0009412493673,781.0552979,-3.789540278E-5,
779.9373169,-0.002033493016,779.9373169,-0.002902965294,779.9373169,-0.002009891672,
778.9587402,-0.004358582199,778.9587402,-0.00308780605,778.9587402,-0.002761980984,
777.9797363,-0.00365833682,777.9797363,-0.003956352361,777.9797363,-0.002040243475,
777.0004272,-0.0063292142,777.0004272,-0.005159828812,777.0004272,-0.003779784776,
776.0206909,-0.0056892219,776.0206909,-0.00467558112,776.0206909,-0.004064176697,
775.0406494,-0.005635309964,775.0406494,-0.005736995954,775.0406494,-0.004464820959,
774.0601807,-0.005585838109,774.0601807,-0.004881477915,774.0601807,-0.003834953764,
772.93927,-0.005867109168,772.93927,-0.005659992807,772.93927,-0.006306457333,
771.9580688,-0.007515660487,771.9580688,-0.006592259742,771.9580688,-0.005777816754,
770.9764404,-0.008096008562,770.9764404,-0.007379932329,770.9764404,-0.006587058306,
769.9945068,-0.008536357433,769.9945068,-0.009010592476,769.9945068,-0.00850183703,
769.012207,-0.008526306599,769.012207,-0.009174401872,769.012207,-0.008188636042,
768.029541,-0.00946749188,768.029541,-0.008141689003,768.029541,-0.008559606969,
767.0465088,-0.01043904107,767.0465088,-0.009247692302,767.0465088,-0.009846381843,
766.0631104,-0.01175906975,766.0631104,-0.0107298661,766.0631104,-0.01102695614,
764.9387817,-0.01197125576,764.9387817,-0.009762460366,764.9387817,-0.01043363381,
763.9545898,-0.01199452393,763.9545898,-0.01100575645,763.9545898,-0.01039597765,
762.9700317,-0.01280504279,762.9700317,-0.01198450103,762.9700317,-0.01058705524,
761.9851685,-0.01441985369,761.9851685,-0.01266447082,761.9851685,-0.01240764465,
760.999939,-0.01351369172,760.999939,-0.01205988787,760.999939,-0.01186164934,
760.0142822,-0.01479004603,760.0142822,-0.01458544005,760.0142822,-0.01333414018,
759.0283203,-0.01353627443,759.0283203,-0.01341175195,759.0283203,-0.01333067566,
758.0419922,-0.01347308978,758.0419922,-0.01413123962,758.0419922,-0.01299948525,
757.0552979,-0.01530543715,757.0552979,-0.01488926075,757.0552979,-0.01359393168,
756.0682983,-0.01443227381,756.0682983,-0.01338218525,756.0682983,-0.01432554051,
754.9397583,-0.01511552464,754.9397583,-0.01372667775,754.9397583,-0.01306766272,
753.9519653,-0.01492292807,753.9519653,-0.01395710744,753.9519653,-0.01370851882,
752.9638062,-0.01549246907,752.9638062,-0.01379639655,752.9638062,-0.01403135061,
751.9752808,-0.01616158523,751.9752808,-0.01433866471,751.9752808,-0.01529054344,
750.9863892,-0.01720831729,750.9863892,-0.01698747277,750.9863892,-0.01576834731,
749.9971924,-0.0176266022,749.9971924,-0.01623520255,749.9971924,-0.01578157768,
749.0075684,-0.016400747,749.0075684,-0.01588805392,749.0075684,-0.0162470229,
748.0176392,-0.01813104376,748.0176392,-0.01791081764,748.0176392,-0.01560905389,
747.0273438,-0.01724837348,747.0273438,-0.01642477699,747.0273438,-0.01627499983,
746.0367432,-0.01808630116,746.0367432,-0.01697940752,746.0367432,-0.01713436656,
745.0457153,-0.0179249756,745.0457153,-0.01748867705,745.0457153,-0.0167266652,
744.0543823,-0.01781939529,744.0543823,-0.01726533845,744.0543823,-0.01748484932,
743.0626831,-0.01788473316,743.0626831,-0.01827174239,743.0626831,-0.01698070206,
742.0706177,-0.01857656799,742.0706177,-0.01791975833,742.0706177,-0.01734951511,
740.9364624,-0.01831601933,740.9364624,-0.01796024665,740.9364624,-0.01702371612,
739.9436646,-0.01978730224,739.9436646,-0.01970528066,739.9436646,-0.0193014238,
738.9505005,-0.01967148669,738.9505005,-0.01865379512,738.9505005,-0.0185729973,
737.9569702,-0.01898550987,737.9569702,-0.01840068586,737.9569702,-0.0181204658,
736.9631348,-0.02007005736,736.9631348,-0.0183049012,736.9631348,-0.0185909532,
735.9689331,-0.02024595626,735.9689331,-0.0192361977,735.9689331,-0.01935034804,
734.9744263,-0.02000944689,734.9744263,-0.01907227747,734.9744263,-0.01872609928,
733.9794922,-0.01966876537,733.9794922,-0.01970755681,733.9794922,-0.0187171232,
732.984314,-0.02071543038,732.984314,-0.01991401613,732.984314,-0.01955776848,
731.9887085,-0.02062025294,731.9887085,-0.01954598911,731.9887085,-0.01853122748,
730.9927979,-0.02042845264,730.9927979,-0.02046440914,730.9927979,-0.01942827925,
729.996521,-0.02093606628,729.996521,-0.02036404051,729.996521,-0.01970904134,
728.9998779,-0.02062830143,728.9998779,-0.01990120858,728.9998779,-0.01943837851,
728.0029297,-0.02080022357,728.0029297,-0.02003565058,728.0029297,-0.01976805925,
727.0056152,-0.02074652724,727.0056152,-0.02011138201,727.0056152,-0.02007228136,
726.0079956,-0.02228393592,726.0079956,-0.02083837055,726.0079956,-0.02020187676,
725.0100098,-0.02209882252,725.0100098,-0.02084641345,725.0100098,-0.02103886753,
724.0116577,-0.02177184075,724.0116577,-0.02118252404,724.0116577,-0.02053685673,
723.0130005,-0.02197471261,723.0130005,-0.02089896426,723.0130005,-0.02031048574,
722.0139771,-0.02125869691,722.0139771,-0.02140282281,722.0139771,-0.02101933584,
721.0145874,-0.02213783935,721.0145874,-0.02165768668,721.0145874,-0.02106382512,
720.0148926,-0.0228318274,720.0148926,-0.02156931721,720.0148926,-0.02140858956,
719.0148926,-0.02223907784,719.0148926,-0.02132376656,719.0148926,-0.02121215686,
718.0145264,-0.02251139469,718.0145264,-0.02190767415,718.0145264,-0.02145491168,
717.0137939,-0.02261549607,717.0137939,-0.02178818733,717.0137939,-0.02089442499,
716.0127563,-0.02279822715,716.0127563,-0.02184530161,716.0127563,-0.02173633687,
715.0113525,-0.02292141318,715.0113525,-0.0225562714,715.0113525,-0.02229426429,
714.0096436,-0.02380538359,714.0096436,-0.02265574224,714.0096436,-0.022349393,
713.0075684,-0.02373705804,713.0075684,-0.02275303006,713.0075684,-0.0227541104,
712.005127,-0.02440838143,712.005127,-0.02313327231,712.005127,-0.02329915203,
711.0024414,-0.02405644022,711.0024414,-0.02379714884,711.0024414,-0.0231505502,
709.9993286,-0.02517981268,709.9993286,-0.02400490828,709.9993286,-0.02352872863,
708.9959106,-0.02525841445,708.9959106,-0.02428909205,708.9959106,-0.02394959703,
707.9921875,-0.02520306781,707.9921875,-0.02425609529,707.9921875,-0.02379905991,
706.9880981,-0.02554329298,706.9880981,-0.0251318831,706.9880981,-0.02479485422,
705.9837036,-0.02598225698,705.9837036,-0.02513354458,705.9837036,-0.02480404824,
704.9789429,-0.02637965977,704.9789429,-0.02530769818,704.9789429,-0.02461403795,
703.973877,-0.02667826414,703.973877,-0.02551043965,703.973877,-0.0251957383,
702.9684448,-0.02637206018,702.9684448,-0.02586481348,702.9684448,-0.02511302195,
701.9627075,-0.02634818479,701.9627075,-0.02573114075,701.9627075,-0.02539286949,
700.956665,-0.02733470686,700.956665,-0.02622411586,700.956665,-0.02645609714,
699.9502563,-0.02760583907,699.9502563,-0.0268898569,699.9502563,-0.02623932064,
698.9435425,-0.02787471376,698.9435425,-0.02730266936,698.9435425,-0.02692547813,
697.9364624,-0.02779172733,697.9364624,-0.02717293799,697.9364624,-0.02706549689,
696.9290771,-0.02781780437,696.9290771,-0.02692002803,696.9290771,-0.02660663985,
696.0653076,-0.02841414697,696.0653076,-0.02733144909,696.0653076,-0.02664242871,
695.057312,-0.02888747305,695.057312,-0.02794171125,695.057312,-0.02724641562,
694.0489502,-0.02834460139,694.0489502,-0.02792146802,694.0489502,-0.02740591951,
693.0403442,-0.0286126323,693.0403442,-0.02803670615,693.0403442,-0.02770367451,
692.031311,-0.02906661667,692.031311,-0.02756318077,692.031311,-0.02802699804,
691.0220337,-0.02961453423,691.0220337,-0.0285457857,691.0220337,-0.0278522335,
690.0123901,-0.02961932123,690.0123901,-0.02869226225,690.0123901,-0.02864181064,
689.0023804,-0.02943977714,689.0023804,-0.02965713665,689.0023804,-0.02889343165,
687.9921265,-0.02954996936,687.9921265,-0.0293149408,687.9921265,-0.0287011303,
686.9815063,-0.02982035093,686.9815063,-0.0298713427,686.9815063,-0.02920802869,
685.9705811,-0.03056525253,685.9705811,-0.03077983111,685.9705811,-0.03006061353,
684.9592896,-0.03055058233,684.9592896,-0.02989096381,684.9592896,-0.02834411711,
683.9476929,-0.03058532439,683.9476929,-0.02912684716,683.9476929,-0.02881533839,
682.935791,-0.03011051379,682.935791,-0.02935699373,682.935791,-0.02949424833,
682.0681763,-0.02977036871,682.0681763,-0.02936144546,682.0681763,-0.02894719504,
681.0556641,-0.03105291724,681.0556641,-0.03026742488,681.0556641,-0.03028036654,
680.0428467,-0.03066054173,680.0428467,-0.030131042,680.0428467,-0.02985099517,
679.0297241,-0.03187206388,679.0297241,-0.03108549863,679.0297241,-0.03016668744,
678.0162354,-0.03041868098,678.0162354,-0.03014239296,678.0162354,-0.02953942493,
677.0024414,-0.0308705885,677.0024414,-0.03027717955,677.0024414,-0.03066734411,
675.9883423,-0.03225791454,675.9883423,-0.03047360852,675.9883423,-0.03029055335,
674.973877,-0.03134813532,674.973877,-0.03082931228,674.973877,-0.02952747792,
673.9591675,-0.03150859475,673.9591675,-0.03054976277,673.9591675,-0.0305286739,
672.9440918,-0.03199443594,672.9440918,-0.03145336732,672.9440918,-0.03107364289,
671.9287109,-0.0312054418,671.9287109,-0.03080828488,671.9287109,-0.03015818633,
671.0581055,-0.03111643903,671.0581055,-0.03079487756,671.0581055,-0.03048157133,
670.0421143,-0.0314322263,670.0421143,-0.03120838106,670.0421143,-0.03060920909,
669.0258789,-0.03138401732,669.0258789,-0.03073019907,669.0258789,-0.03013041429,
668.0092773,-0.03189597279,668.0092773,-0.03033898026,668.0092773,-0.02965312265,
666.9923096,-0.0313061811,666.9923096,-0.03112280183,666.9923096,-0.03021758981,
665.9750977,-0.03170490265,665.9750977,-0.03043316118,665.9750977,-0.02985452302,
664.9575195,-0.0305751916,664.9575195,-0.03070492297,664.9575195,-0.02928043716,
663.9396973,-0.03053552657,663.9396973,-0.03027399257,663.9396973,-0.02936415374,
663.0669556,-0.03119199909,663.0669556,-0.03074462153,663.0669556,-0.03045768104,
662.0485229,-0.03121609055,662.0485229,-0.03016953729,662.0485229,-0.03045753576,
661.0297852,-0.0317729488,661.0297852,-0.03033907712,661.0297852,-0.03024294414,
660.0106812,-0.03058797866,660.0106812,-0.03036287799,660.0106812,-0.02988115326,
658.991333,-0.03103257716,658.991333,-0.03041385487,658.991333,-0.03019291349,
657.9716187,-0.03098244406,657.9716187,-0.02981401794,657.9716187,-0.02943193913,
656.9515991,-0.03112964518,656.9515991,-0.03009974211,656.9515991,-0.03002693877,
655.9313354,-0.03073121235,655.9313354,-0.02998722345,655.9313354,-0.02988830581,
655.0565186,-0.0313279517,655.0565186,-0.03029659018,655.0565186,-0.02962792851,
654.0356445,-0.03089889325,654.0356445,-0.02982513607,654.0356445,-0.02909987979,
653.0144043,-0.03028379381,653.0144043,-0.02925744653,653.0144043,-0.02878374979,
651.9929199,-0.03055333346,651.9929199,-0.02978699654,651.9929199,-0.02893048525,
650.9711304,-0.03053127974,650.9711304,-0.0295918528,650.9711304,-0.02917182073,
649.9489746,-0.03022555821,649.9489746,-0.02938500792,649.9489746,-0.02928672731,
649.0726318,-0.03063627519,649.0726318,-0.03031821921,649.0726318,-0.02997997589,
648.0499268,-0.02950595319,648.0499268,-0.02875593677,648.0499268,-0.02877299301,
647.0269775,-0.02959963866,647.0269775,-0.02865150385,647.0269775,-0.02869061567,
646.0036621,-0.02938423492,646.0036621,-0.02856260724,646.0036621,-0.02825219743,
644.9800415,-0.02935573459,644.9800415,-0.02888781205,644.9800415,-0.02763474546,
643.9561157,-0.02930444106,643.9561157,-0.02901964635,643.9561157,-0.02853536233,
642.9319458,-0.02906390466,642.9319458,-0.02825370245,642.9319458,-0.02847092785,
642.053772,-0.03052500635,642.053772,-0.02986419015,642.053772,-0.0291339159,
641.0289917,-0.02908830903,641.0289917,-0.02865838632,641.0289917,-0.02839033678,
640.0039063,-0.02881703526,640.0039063,-0.02884348668,640.0039063,-0.02827567607,
638.9785156,-0.02869817428,638.9785156,-0.02754010074,638.9785156,-0.02708232775,
637.9528809,-0.02816181257,637.9528809,-0.02833601646,637.9528809,-0.02792161331,
636.9268799,-0.02812799066,636.9268799,-0.0280108843,636.9268799,-0.02777754702,
636.0472412,-0.0281717591,636.0472412,-0.02767977677,636.0472412,-0.02775928751,
635.0206909,-0.02861849777,635.0206909,-0.02782615833,635.0206909,-0.02742482722,
633.9938354,-0.02846472152,633.9938354,-0.0278501939,633.9938354,-0.0270412229,
632.9666748,-0.02797865309,632.9666748,-0.02741705067,632.9666748,-0.02675825171,
631.93927,-0.02810795046,631.93927,-0.02779561281,631.93927,-0.02710270882,
631.0583496,-0.02822168358,631.0583496,-0.02698556893,631.0583496,-0.02622177638,
630.0303345,-0.02765009552,630.0303345,-0.02660819888,630.0303345,-0.02675951645,
629.0020752,-0.0271985177,629.0020752,-0.0264527835,629.0020752,-0.02630891092,
627.9734497,-0.02643709816,627.9734497,-0.02625101805,627.9734497,-0.02591198124,
626.9445801,-0.02674359828,626.9445801,-0.02608596906,626.9445801,-0.02599903196,
626.062439,-0.02672904357,626.062439,-0.02588242292,626.062439,-0.02570191212,
625.03302,-0.02717527375,625.03302,-0.02675917558,625.03302,-0.02604228258,
624.0032959,-0.02564374171,624.0032959,-0.02555847354,624.0032959,-0.02467410639,
622.9732666,-0.02631032467,622.9732666,-0.02576651424,622.9732666,-0.02518870495,
621.9429321,-0.02578407899,621.9429321,-0.02574699745,621.9429321,-0.02512313612,
621.0595703,-0.02488340251,621.0595703,-0.02415875159,621.0595703,-0.02437891625,
620.0287476,-0.02455283515,620.0287476,-0.02390206978,620.0287476,-0.02440598421,
618.9975586,-0.02444391139,618.9975586,-0.02336377092,618.9975586,-0.02327942662,
617.9661255,-0.02434093319,617.9661255,-0.02417050488,617.9661255,-0.0234979298,
616.9343872,-0.02398727275,616.9343872,-0.02367019095,616.9343872,-0.02349032834,
616.0498047,-0.02418382466,616.0498047,-0.02350827865,616.0498047,-0.02276924253,
615.0175171,-0.02345275693,615.0175171,-0.02308099158,615.0175171,-0.02236443944,
613.9849243,-0.02254506573,613.9849243,-0.02221143432,613.9849243,-0.02215446718,
612.9520874,-0.02289779112,612.9520874,-0.02243362181,612.9520874,-0.02183614299,
612.0665283,-0.02238558419,612.0665283,-0.02131982334,612.0665283,-0.02095964737,
611.0331421,-0.02238420583,611.0331421,-0.02161084302,611.0331421,-0.02127614804,
609.9994507,-0.02145101875,609.9994507,-0.02029072307,609.9994507,-0.02044322155,
608.9655151,-0.02083082125,608.9655151,-0.02086560801,608.9655151,-0.02009447664,
607.9312134,-0.02082203701,607.9312134,-0.0198801402,607.9312134,-0.02020845003,
607.0444946,-0.02045265585,607.0444946,-0.02012700215,607.0444946,-0.01952272654,
606.0097046,-0.0196977593,606.0097046,-0.019491693,606.0097046,-0.01882134564,
604.9746094,-0.01994601078,604.9746094,-0.01925338432,604.9746094,-0.0186339058,
603.93927,-0.01933791861,603.93927,-0.01822974533,603.93927,-0.01819295809,
603.0515747,-0.01845254004,603.0515747,-0.01764410175,603.0515747,-0.01722921617,
602.015686,-0.01786401495,602.015686,-0.01764917187,602.015686,-0.01703710668,
600.9794922,-0.01771468483,600.9794922,-0.01689720154,600.9794922,-0.0162493661,
599.9430542,-0.01718358509,599.9430542,-0.01639690809,599.9430542,-0.01563227735,
599.0544434,-0.01634111814,599.0544434,-0.01536575798,599.0544434,-0.01509587374,
598.0174561,-0.01601077057,598.0174561,-0.01499420498,598.0174561,-0.01476062275,
596.9801636,-0.01506832149,596.9801636,-0.01439796761,596.9801636,-0.01456771791,
595.942627,-0.0145155983,595.942627,-0.01378260367,595.942627,-0.01347775664,
595.0530396,-0.01445130352,595.0530396,-0.01385291573,595.0530396,-0.01326665748,
594.0150146,-0.01367490832,594.0150146,-0.0130051123,594.0150146,-0.01248693187,
592.9766235,-0.01303817239,592.9766235,-0.01216692757,592.9766235,-0.01179675851,
591.9379883,-0.0120905526,591.9379883,-0.01119823102,591.9379883,-0.01055931579,
591.0475464,-0.01167365164,591.0475464,-0.01073506847,591.0475464,-0.01000871323,
590.0083618,-0.01115766447,590.0083618,-0.01007943507,590.0083618,-0.009822240099,
588.9689331,-0.009932109155,588.9689331,-0.009260666557,588.9689331,-0.009040813893,
587.9292603,-0.009060385637,587.9292603,-0.008472491056,587.9292603,-0.008083863184,
587.0378418,-0.008698417805,587.0378418,-0.007927725092,587.0378418,-0.007299452554,
585.9976196,-0.007870836183,585.9976196,-0.00679092994,585.9976196,-0.006167186424,
584.9570923,-0.007464264985,584.9570923,-0.006748012267,584.9570923,-0.006088064052,
584.0650635,-0.006737868302,584.0650635,-0.005477675237,584.0650635,-0.005228276365,
583.0240479,-0.005118796602,583.0240479,-0.004517597146,583.0240479,-0.003941576928,
581.9827271,-0.004729458597,581.9827271,-0.00376731297,581.9827271,-0.003155655693,
580.9411621,-0.003435114631,580.9411621,-0.003029971616,580.9411621,-0.002251204569,
580.0482178,-0.002572986996,580.0482178,-0.002052764874,580.0482178,-0.00116299931,
579.0061035,-0.001412627171,579.0061035,-0.0008938538958,579.0061035,-1.553155357E-6,
577.9638062,-0.001114357845,577.9638062,0.0002529536723,577.9638062,0.0007417224115,
577.0701294,0.0007276165998,577.0701294,0.001354029169,577.0701294,0.001942991861,
576.0272827,0.001412016922,576.0272827,0.001973935403,576.0272827,0.002727453364,
574.9841309,0.002310217824,574.9841309,0.003140683519,574.9841309,0.003678607289,
573.9407349,0.003290242981,573.9407349,0.004630697425,573.9407349,0.004883719608,
573.0462036,0.004323673435,573.0462036,0.005678341258,573.0462036,0.005908593535,
572.0023193,0.00587049406,572.0023193,0.006767192855,572.0023193,0.007113761269,
570.9581299,0.0071655754,570.9581299,0.008586652577,570.9581299,0.008706986904,
570.0629272,0.007593826391,570.0629272,0.008569148369,570.0629272,0.009104483761,
569.0182495,0.008744914085,569.0182495,0.009601760656,569.0182495,0.01026329864,
567.9733276,0.01006373577,567.9733276,0.01109558344,567.9733276,0.01154386532,
566.9281006,0.01161407772,566.9281006,0.01244117878,566.9281006,0.01316335611,
566.0320435,0.01274786703,566.0320435,0.01356671751,566.0320435,0.01458803192,
564.9863281,0.01447330974,564.9863281,0.01546537504,564.9863281,0.01607366838,
563.9403687,0.01547725871,563.9403687,0.01629079506,563.9403687,0.01684467308,
563.0435791,0.016338313,563.0435791,0.01769731008,563.0435791,0.01824742556,
561.9971313,0.01841291972,561.9971313,0.01956034452,561.9971313,0.01982587576,
560.9504395,0.01921265945,560.9504395,0.02010092512,560.9504395,0.02057830803,
560.0529785,0.02105135284,560.0529785,0.02225958742,560.0529785,0.02285466902,
559.0057983,0.02298480831,559.0057983,0.02438459359,559.0057983,0.02469232865,
557.958313,0.02438160963,557.958313,0.0252624657,557.958313,0.02595402859,
557.0602417,0.02586159669,557.0602417,0.02704705112,557.0602417,0.02775879204,
556.0122681,0.02684758417,556.0122681,0.0276999101,556.0122681,0.02872999199,
554.9640503,0.02900191024,554.9640503,0.0300761722,554.9640503,0.03104851395,
554.0653687,0.03033006005,554.0653687,0.03158875555,554.0653687,0.03242888302,
553.0166626,0.03217758611,553.0166626,0.03365704045,553.0166626,0.03455628827,
551.9676514,0.03372650221,551.9676514,0.03555838764,551.9676514,0.03639368713,
551.0683594,0.03534326702,551.0683594,0.03681800887,551.0683594,0.03781419247,
550.0188599,0.03729442134,550.0188599,0.03865466639,550.0188599,0.0394567661,
548.9691772,0.04032953829,548.9691772,0.04157363623,548.9691772,0.04244639724,
548.0691528,0.04191546515,548.0691528,0.04330149665,548.0691528,0.04367013648,
547.0189819,0.04397950321,547.0189819,0.04576268047,547.0189819,0.04678941891,
545.9685059,0.04592875764,545.9685059,0.04722584784,545.9685059,0.04813457653,
545.0679321,0.04821414128,545.0679321,0.04957962409,545.0679321,0.05067108572,
544.0169678,0.05039903894,544.0169678,0.05212580785,544.0169678,0.05289647356,
542.9657593,0.05312409997,542.9657593,0.0547333695,542.9657593,0.05574589223,
542.0645752,0.055013787,542.0645752,0.05670408532,542.0645752,0.05771078169,
541.0128784,0.0571442768,541.0128784,0.0587683022,541.0128784,0.05973705649,
539.9609375,0.05972054228,539.9609375,0.06163745373,539.9609375,0.06229126453,
539.059082,0.06207019091,539.059082,0.06390392035,539.059082,0.06489941478,
538.0067139,0.06459200382,538.0067139,0.06644113362,538.0067139,0.06778229773,
536.9540405,0.06747306883,536.9540405,0.06931137294,536.9540405,0.07046617568,
536.0515747,0.06990054995,536.0515747,0.07181223482,536.0515747,0.07295751572,
534.9984741,0.07344448566,534.9984741,0.0754706338,534.9984741,0.07648219913,
533.9450684,0.07551067322,533.9450684,0.07768457383,533.9450684,0.07883181423,
533.0419922,0.07730985433,533.0419922,0.07950741798,533.0419922,0.08070462197,
531.9880981,0.08073557913,531.9880981,0.08298671991,531.9880981,0.08402770758,
530.934021,0.08429434896,530.934021,0.08627035469,530.934021,0.08752123266,
530.0303345,0.08710310608,530.0303345,0.08934347332,530.0303345,0.09058762342,
528.975769,0.08944161236,528.975769,0.09175102413,528.975769,0.09338175505,
528.0716553,0.09129701555,528.0716553,0.09362731874,528.0716553,0.09508161992,
527.0166016,0.09437856823,527.0166016,0.09659440815,527.0166016,0.09818861634,
525.9613647,0.09730646759,525.9613647,0.09990538657,525.9613647,0.1014144719,
525.0566406,0.1007859781,525.0566406,0.1034722105,525.0566406,0.1045818627,
524.0009155,0.104439117,524.0009155,0.1070758328,524.0009155,0.1089178696,
522.9449463,0.1075147465,522.9449463,0.1101441681,522.9449463,0.1117923409,
522.0396118,0.1095543876,522.0396118,0.1124216914,522.0396118,0.1138200983,
520.9831543,0.1130972579,520.9831543,0.1155616716,520.9831543,0.1172665209,
519.9265137,0.1163133979,519.9265137,0.119544059,519.9265137,0.1211729944,
519.0205688,0.1199743673,519.0205688,0.1228752211,519.0205688,0.1248092949,
517.9634399,0.1237001866,517.9634399,0.1266756356,517.9634399,0.128246963,
517.0571289,0.126440987,517.0571289,0.1294488311,517.0571289,0.1311647594,
515.9995117,0.130216971,515.9995117,0.1333668381,515.9995117,0.1350997835,
514.9416504,0.1340874732,514.9416504,0.1378097534,514.9416504,0.1388782114,
514.03479,0.1375807375,514.03479,0.1405113041,514.03479,0.1426926851,
512.9765015,0.1414356232,512.9765015,0.1452773511,512.9765015,0.1470362544,
512.0691528,0.1465638876,512.0691528,0.1493333578,512.0691528,0.1517734826,
511.010437,0.149995923,511.010437,0.153460592,511.010437,0.1554198116,
509.9514771,0.1543451548,509.9514771,0.1575163901,509.9514771,0.1598421931,
509.0435791,0.1582183838,509.0435791,0.1613439769,509.0435791,0.1635384411,
507.9841614,0.1636517346,507.9841614,0.1675389409,507.9841614,0.1692382395,
506.9244995,0.1693926007,506.9244995,0.1724370122,506.9244995,0.1747066379,
506.0160217,0.1737844646,506.0160217,0.1773155779,506.0160217,0.180335924,
504.9559021,0.1778202057,504.9559021,0.1815490276,504.9559021,0.184267208,
504.0470581,0.1819551885,504.0470581,0.1856898665,504.0470581,0.1877237558,
502.9865112,0.1870387197,502.9865112,0.1908602566,502.9865112,0.1930100769,
501.9257202,0.1928592771,501.9257202,0.1970924735,501.9257202,0.1992459595,
501.0162659,0.1982860863,501.0162659,0.2026963085,501.0162659,0.2042613178,
499.9550476,0.2046575844,499.9550476,0.2080722451,499.9550476,0.2103578597,
499.0452271,0.2073219866,499.0452271,0.2116828114,499.0452271,0.2139467597,
497.9835815,0.211830005,497.9835815,0.2161944956,497.9835815,0.2184537202,
497.0733948,0.2177686095,497.0733948,0.2220244408,497.0733948,0.2246134132,
496.0112915,0.2238806933,496.0112915,0.2286416888,496.0112915,0.2307408005,
494.9489441,0.2304529548,494.9489441,0.2342510372,494.9489441,0.2368249297,
494.038208,0.2350121588,494.038208,0.239613533,494.038208,0.2419887334,
492.9754333,0.2404961586,492.9754333,0.2445202917,492.9754333,0.2467471212,
492.0643005,0.244787246,492.0643005,0.2492065281,492.0643005,0.2516895533,
491.0010986,0.2522928715,491.0010986,0.2565358281,491.0010986,0.25870049,
489.9376526,0.2594704032,489.9376526,0.2641791999,489.9376526,0.2663581073,
489.0259705,0.2646995783,489.0259705,0.2691850662,489.0259705,0.2715649307,
487.9620972,0.2696090043,487.9620972,0.2737548351,487.9620972,0.2762275636,
487.0500488,0.2746464014,487.0500488,0.2792780995,487.0500488,0.2813892961,
485.9857483,0.2823690176,485.9857483,0.2869332433,485.9857483,0.2888947427,
485.0733337,0.2902413309,485.0733337,0.2950993478,485.0733337,0.296628505,
484.008606,0.2959678471,484.008606,0.3002294004,484.008606,0.3028695583,
482.9436646,0.304853946,482.9436646,0.3091108203,482.9436646,0.3112660348,
482.0306702,0.3104100823,482.0306702,0.3150599599,482.0306702,0.3169877529,
480.9653015,0.3170121014,480.9653015,0.3209493756,480.9653015,0.3241268694,
480.0519714,0.325540632,480.0519714,0.3303604126,480.0519714,0.3328397274,
478.9861755,0.3345499337,478.9861755,0.3407236636,478.9861755,0.3414187729,
478.0724487,0.3430239558,478.0724487,0.3476488292,478.0724487,0.3497644067,
477.0062561,0.350212425,477.0062561,0.3544302285,477.0062561,0.3574059904,
475.9398193,0.3582220674,475.9398193,0.3624810576,475.9398193,0.3647656143,
475.0255737,0.366121918,475.0255737,0.3704065084,475.0255737,0.3725585938,
473.9587097,0.3760240972,473.9587097,0.379488945,473.9587097,0.3819144964,
473.0440979,0.3836128712,473.0440979,0.3880819678,473.0440979,0.39082551,
471.9768372,0.3935657442,471.9768372,0.3978449404,471.9768372,0.4007623494,
471.0618591,0.3995562196,471.0618591,0.4035814703,471.0618591,0.4058404267,
469.9941711,0.4076662064,469.9941711,0.4125897884,469.9941711,0.4134307504,
468.9262695,0.4162868559,468.9262695,0.4203822911,468.9262695,0.4219391942,
468.0107727,0.4252316654,468.0107727,0.4299734533,468.0107727,0.431194067,
466.9424438,0.4347305894,466.9424438,0.4384848177,466.9424438,0.4402534068,
466.0265808,0.4409181178,466.0265808,0.4449426532,466.0265808,0.4460730851,
464.9578857,0.4465503097,464.9578857,0.4519963562,464.9578857,0.4531085789,
464.0416565,0.4528493583,464.0416565,0.4572144747,464.0416565,0.4592346251,
462.9725342,0.4604183137,462.9725342,0.4651926756,462.9725342,0.4667599499,
462.0559692,0.4669691622,462.0559692,0.4709013402,462.0559692,0.4723834991,
460.9864197,0.472130239,460.9864197,0.4771582782,460.9864197,0.4783878326,
460.069519,0.475165993,460.069519,0.4794622064,460.069519,0.4807364345,
458.9995728,0.4786295593,458.9995728,0.4834079742,458.9995728,0.4845692217,
457.9294434,0.4826627672,457.9294434,0.4872187972,457.9294434,0.4884958565,
457.0119934,0.485486865,457.0119934,0.4899806976,457.0119934,0.4912345707,
455.9414368,0.4886698127,455.9414368,0.4929274321,455.9414368,0.4936344326,
455.0236511,0.4889597893,455.0236511,0.4940128922,455.0236511,0.4949871004,
453.9526978,0.4897628427,453.9526978,0.4948811829,453.9526978,0.4954528511,
453.0345764,0.4898307025,453.0345764,0.4937942028,453.0345764,0.4951874912,
451.9632263,0.4891529679,451.9632263,0.4932922721,451.9632263,0.4944654405,
451.0447693,0.487221241,451.0447693,0.4918236434,451.0447693,0.4928613603,
449.9730225,0.4852530658,449.9730225,0.4900949895,449.9730225,0.4902724028,
449.0541992,0.4836206734,449.0541992,0.4881100357,449.0541992,0.489092052,
447.9820862,0.4813017845,447.9820862,0.4859074652,447.9820862,0.4866838157,
447.0629272,0.4775315821,447.0629272,0.4824303687,447.0629272,0.4838295877,
445.990387,0.4743504226,445.990387,0.4787891209,445.990387,0.4796589315,
445.0709229,0.4704467356,445.0709229,0.475502193,445.0709229,0.4762243927,
443.9979858,0.4675753415,443.9979858,0.472412765,443.9979858,0.4729825258,
442.9248657,0.4646648467,442.9248657,0.4686475694,442.9248657,0.4701882899,
442.0048828,0.4607783854,442.0048828,0.4656012654,442.0048828,0.4666985869,
440.931366,0.456466943,440.931366,0.4608985484,440.931366,0.4619102478,
440.0110474,0.4530062675,440.0110474,0.4574709535,440.0110474,0.458528161,
438.9371338,0.4491277933,438.9371338,0.4539009333,438.9371338,0.4546217322,
438.0164795,0.4470168054,438.0164795,0.4514719844,438.0164795,0.4526726007,
436.9421997,0.4431990385,436.9421997,0.4479466379,436.9421997,0.448692292,
436.0212097,0.4394545257,436.0212097,0.4445492923,436.0212097,0.4453917742,
434.9465332,0.4351033568,434.9465332,0.4405430853,434.9465332,0.4417334795,
434.025238,0.4325478375,434.025238,0.4370016158,434.025238,0.4388063848,
432.9501648,0.4295042753,432.9501648,0.4346806705,432.9501648,0.4362484515,
432.0285339,0.4270655215,432.0285339,0.4323849082,432.0285339,0.4339585304,
430.953125,0.4247966707,430.953125,0.4295384288,430.953125,0.4311571121,
430.0311584,0.4221524298,430.0311584,0.4273789823,430.0311584,0.4280829132,
428.9553528,0.4200414419,428.9553528,0.4248580039,428.9553528,0.4261507392,
428.0330505,0.4181064963,428.0330505,0.4234717786,428.0330505,0.4243001938,
426.9568787,0.417527914,426.9568787,0.4227156937,426.9568787,0.4239759743,
426.0342712,0.4163943529,426.0342712,0.4218196869,426.0342712,0.4236031473,
424.9577332,0.4166213572,424.9577332,0.4221987128,424.9577332,0.4233631492,
424.03479,0.4175804555,424.03479,0.4224217832,424.03479,0.4241910279,
422.9578552,0.4192079604,422.9578552,0.4247558713,422.9578552,0.4257906377,
422.0346375,0.4194546938,422.0346375,0.4251060486,422.0346375,0.4270233512,
420.9573364,0.4223059416,420.9573364,0.4280691445,420.9573364,0.4296016395,
420.033783,0.4251835048,420.033783,0.431089133,420.033783,0.4330303967,
418.9561157,0.4272670746,418.9561157,0.4337089062,418.9561157,0.4353831112,
418.0322266,0.4292009473,418.0322266,0.4358249009,418.0322266,0.437659502,
416.9541931,0.4307484329,416.9541931,0.4369196892,416.9541931,0.4385462403,
416.0299988,0.4303720593,416.0299988,0.4373134375,416.0299988,0.4384446144,
414.9515991,0.4289573133,414.9515991,0.4356259108,414.9515991,0.4373248219,
414.0270996,0.4256786406,414.0270996,0.4320647717,414.0270996,0.4340493083,
412.9483337,0.4198733866,412.9483337,0.426502347,412.9483337,0.4284139872,
412.0235291,0.4145738184,412.0235291,0.4207545817,412.0235291,0.4229198098,
410.9444275,0.4073584974,410.9444275,0.412594825,410.9444275,0.4142512381,
410.0192871,0.4007286429,410.0192871,0.4067281187,410.0192871,0.4086956084,
408.9398193,0.3891996443,408.9398193,0.3952458203,408.9398193,0.3971975744,
408.0143738,0.3794244528,408.0143738,0.3860401511,408.0143738,0.3867177665,
406.9345398,0.3701227903,406.9345398,0.3749213219,406.9345398,0.3768999279,
406.0088196,0.3644085824,406.0088196,0.3695660532,406.0088196,0.3711493611,
404.9286194,0.3564522564,404.9286194,0.3616567552,404.9286194,0.3627727032,
404.002594,0.3474003375,404.002594,0.3527540565,404.002594,0.3538711369,
403.076416,0.3388955295,403.076416,0.343464911,403.076416,0.3448679149,
401.995697,0.3293011189,401.995697,0.3348929882,401.995697,0.3362308145,
401.0692139,0.3251561224,401.0692139,0.3308209479,401.0692139,0.3314139545,
399.9881287,0.3190159202,399.9881287,0.324444741,399.9881287,0.3254918754,
399.0613708,0.312951535,399.0613708,0.317016691,399.0613708,0.3182795942,
397.97995,0.3056271076,397.97995,0.3104529977,397.97995,0.3115667701,
397.0528564,0.2992255092,397.0528564,0.3040981293,397.0528564,0.3047272563,
395.9710999,0.295057416,395.9710999,0.2997362912,395.9710999,0.3001789153,
395.0437317,0.2910972834,395.0437317,0.295348227,395.0437317,0.2964005172,
393.9616089,0.2851840258,393.9616089,0.2894410193,393.9616089,0.2900376022,
393.0339355,0.2787193954,393.0339355,0.2830393612,393.0339355,0.2836014926,
391.9514771,0.2727196515,391.9514771,0.27698192,391.9514771,0.2774721384,
391.0234985,0.2682043016,391.0234985,0.272336483,391.0234985,0.2732931376,
389.9407043,0.2624184191,389.9407043,0.2666632235,389.9407043,0.267451942,
389.0124512,0.2577550411,389.0124512,0.262101084,389.0124512,0.2622354925,
387.9293213,0.2509715259,387.9293213,0.2550709546,387.9293213,0.255751133,
387.0007629,0.2450029403,387.0007629,0.2491766512,387.0007629,0.2502028644,
386.072052,0.2407378405,386.072052,0.2446695566,386.072052,0.245255515,
384.9884338,0.2357266843,384.9884338,0.240041703,384.9884338,0.2406882346,
384.0594482,0.2308601141,384.0594482,0.2352570891,384.0594482,0.2359143049,
382.9754639,0.2248509377,382.9754639,0.2290687263,382.9754639,0.2295664698,
382.0462036,0.2203941345,382.0462036,0.2243364155,382.0462036,0.2251049876,
380.9619141,0.2159119099,380.9619141,0.2193087786,380.9619141,0.2204950601,
380.0323486,0.212193951,380.0323486,0.2168494463,380.0323486,0.2176789045,
378.9477234,0.2080867141,378.9477234,0.2123293877,378.9477234,0.2127958983,
378.0178833,0.204008624,378.0178833,0.2084515095,378.0178833,0.2091356367,
376.9328918,0.2008072734,376.9328918,0.204742983,376.9328918,0.2060614526,
376.0027771,0.1967049986,376.0027771,0.2007952332,376.0027771,0.2020453662,
375.0725403,0.1945592612,375.0725403,0.1992047131,375.0725403,0.2001075745,
373.9870605,0.1917475164,373.9870605,0.1954346299,373.9870605,0.1966472715,
373.0565491,0.1877882183,373.0565491,0.1927001327,373.0565491,0.1936699301,
371.9707642,0.1849347055,371.9707642,0.1895100474,371.9707642,0.1906298846,
371.0399475,0.1829872131,371.0399475,0.1873714626,371.0399475,0.1886530668,
369.9538269,0.1815443784,369.9538269,0.1851969957,369.9538269,0.1861123741,
369.0227356,0.1795148253,369.0227356,0.1842228919,369.0227356,0.1850567311,
367.9363098,0.1784851551,367.9363098,0.1830065101,367.9363098,0.1840219647,
367.0049438,0.1778125167,367.0049438,0.1827937067,367.0049438,0.1834465861,
366.0734558,0.1777101606,366.0734558,0.1821810752,366.0734558,0.183644712,
364.9865417,0.1775034219,364.9865417,0.1821963191,364.9865417,0.1833375096,
364.0547791,0.1782659441,364.0547791,0.1831852645,364.0547791,0.1842442304,
362.9675598,0.1794743985,362.9675598,0.1847200543,362.9675598,0.1853797585,
362.0355225,0.1800968498,362.0355225,0.1852026731,362.0355225,0.1869566888,
360.9479675,0.1825265586,360.9479675,0.1879147589,360.9479675,0.1888364404,
360.0156555,0.1853716969,360.0156555,0.1899745166,360.0156555,0.1912208349,
358.9277954,0.1889466196,358.9277954,0.1938751638,358.9277954,0.1943124682,
357.9952087,0.1910077184,357.9952087,0.1957431585,357.9952087,0.1975326985,
357.0625305,0.1962977052,357.0625305,0.201028347,357.0625305,0.2022124231,
355.9742126,0.2002174407,355.9742126,0.2054807395,355.9742126,0.2065901756,
355.0412292,0.2052469701,355.0412292,0.2101739496,355.0412292,0.2118978053,
353.9526062,0.2085011154,353.9526062,0.213170886,353.9526062,0.215027228,
353.0193481,0.2133020163,353.0193481,0.219121173,353.0193481,0.2199154347,
351.9304199,0.2204226851,351.9304199,0.2246033847,351.9304199,0.2267101705,
350.9969177,0.2252651006,350.9969177,0.2304047644,350.9969177,0.2317315489,
350.0632935,0.2301640511,350.0632935,0.2341975868,350.0632935,0.2356686443,
348.9739075,0.2345647067,348.9739075,0.2398059815,348.9739075,0.2406535447,
348.0400085,0.2398760468,348.0400085,0.2449104339,348.0400085,0.2466065586,
346.9503174,0.2469726503,346.9503174,0.2518585324,346.9503174,0.2523029745,
346.0161743,0.2523629665,346.0161743,0.2570387423,346.0161743,0.2579587102,
344.926178,0.2564145923,344.926178,0.2613443136,344.926178,0.2618689239,
343.9917603,0.2587452531,343.9917603,0.2631793618,343.9917603,0.2645266652,
343.057251,0.2639632821,343.057251,0.2682214081,343.057251,0.2690815926,
341.9667969,0.2673835754,341.9667969,0.2717375457,341.9667969,0.2732932866,
341.0320129,0.2716768682,341.0320129,0.2749458253,341.0320129,0.2753840089,
339.9412842,0.2744765878,339.9412842,0.2779716849,339.9412842,0.2787528932,
339.0062256,0.2752772272,339.0062256,0.2778343856,339.0062256,0.2779150307,
338.0710754,0.2773444951,338.0710754,0.2808741927,338.0710754,0.279943347,
336.9799194,0.2781074643,336.9799194,0.2819085717,336.9799194,0.2799475789,
336.0444946,0.2784304321,336.0444946,0.2798683345,336.0444946,0.2787558436,
334.9530334,0.2788058817,334.9530334,0.2786391079,334.9530334,0.2773082256,
334.0173645,0.2790054381,334.0173645,0.2767488956,334.0173645,0.2738358676,
332.9255981,0.2786622047,332.9255981,0.2779358029,332.9255981,0.2725630999,
331.9896851,0.2705270946,331.9896851,0.2701948583,331.9896851,0.2627300322,
331.0536804,0.2836930156,331.0536804,0.2662680149,331.0536804,0.2544229627,
329.9614868,0.2686901391,329.9614868,0.2575338185,329.9614868,0.2479782701,
329.0252075,0.2700125575,329.0252075,0.2617616057,329.0252075,0.246798709,
327.9327393,0.2880456448,327.9327393,0.2667298615,327.9327393,0.237160787,
326.9962158,0.2675064802,326.9962158,0.2576871514,326.9962158,0.2416722924,
326.0595703,0.2510893941,326.0595703,0.2489529997,326.0595703,0.2142912,
324.9666748,0.3072878718,324.9666748,0.3110927939,324.9666748,0.2887378335,
324.0297852,0.3066627681,324.0297852,0.3923108876,324.0297852,0.3242421448,
322.936615,0.9503954053,322.936615,2.768880129,322.936615,0.6688563228,
321.9994812,10,321.9994812,10,321.9994812,10,
321.0622559,-0.3544462919,321.0622559,10,321.0622559,-0.408816278,
319.9686584,10,319.9686584,10,319.9686584,10,
319.031189,0.4853839874,319.031189,0.5975028872,319.031189,0.3401342928,
317.9373169,0.8195828199,317.9373169,0.6761649251,317.9373169,10,
316.9996033,-0.7373272181,316.9996033,-0.8308020234,316.9996033,-0.6442940235,
316.0617676,10,316.0617676,10,316.0617676,10,
314.9674988,0.1287178844,314.9674988,0.5536768436,314.9674988,0.06118291244,
314.0294495,-0.223053962,314.0294495,10,314.0294495,-1.171869993,
312.934906,10,312.934906,10,312.934906,10,
311.996582,10,311.996582,10,311.996582,10,
311.058197,10,311.058197,0.2309516966,311.058197,10,
309.9632263,10,309.9632263,10,309.9632263,10,
309.0245972,0.2355667949,309.0245972,0.894167006,309.0245972,0.9895387888,
307.9293823,-1.171050668,307.9293823,-1.065626025,307.9293823,-0.5102228522,
306.990509,-0.7418649197,306.990509,-0.4097311795,306.990509,-0.5838493705,
306.0515137,10,306.0515137,10,306.0515137,10,
304.9559326,10,304.9559326,10,304.9559326,10,
304.0166931,-0.2768897414,304.0166931,-0.4493473172,304.0166931,-0.4075210989,
303.0773926,-1.160789967,303.0773926,-0.9347810149,303.0773926,-1.02590549,
301.9813843,-0.126481086,301.9813843,-0.4204173386,301.9813843,-0.3554765284,
301.0418396,-1.075411916,301.0418396,-0.9080168605,301.0418396,-1.062516451,
299.9455872,-0.7543385625,299.9455872,-1.059053421,299.9455872,-0.9165492654,
299.0058289,10,299.0058289,10,299.0058289,10,
298.0659485,-2.220880985,298.0659485,-1.957297325,298.0659485,-1.754939079,
296.9692993,10,296.9692993,0.7065209746,296.9692993,10,
296.0292053,-1.964497685,296.0292053,-1.525505066,296.0292053,-1.71148634,
294.932312,10,294.932312,10,294.932312,10,
293.9919739,10,293.9919739,10,293.9919739,10,
293.0515747,10,293.0515747,10,293.0515747,10,
291.9542847,10,291.9542847,10,291.9542847,10,
291.0136414,0.7303137183,291.0136414,0.5368494391,291.0136414,0.3210144639,
290.0729065,1.358341217,290.0729065,10,290.0729065,10,
288.9752502,-0.07385130227,288.9752502,0.5960680842,288.9752502,-0.05207813904,
288.0343018,10,288.0343018,10,288.0343018,10,
286.9363708,10,286.9363708,10,286.9363708,10,
285.9952087,10,285.9952087,0.5008794665,285.9952087,10,
285.0539246,10,285.0539246,10,285.0539246,10,
283.955658,-0.9497941732,283.955658,-0.9886192679,283.955658,-0.981076777,
283.0141907,-0.8350167274,283.0141907,-0.7003851533,283.0141907,-0.6849631071,
282.0726013,10,282.0726013,10,282.0726013,10,
280.9739685,10,280.9739685,10,280.9739685,0.385439992,
280.0321655,10,280.0321655,10,280.0321655,10,
278.9332886,10,278.9332886,10,278.9332886,10,
277.991272,-0.3957378566,277.991272,-0.3730154335,277.991272,-0.1903885007,
277.0491638,10,277.0491638,0.1518187821,277.0491638,0.4903235137,
275.9499512,-0.5883064866,275.9499512,-0.4419707954,275.9499512,-0.7852354646,
275.0076294,-0.6839452386,275.0076294,-0.75431633,275.0076294,-0.4548451602,
274.0652161,10,274.0652161,10,274.0652161,10,
272.9656372,-0.4296645224,272.9656372,-0.4384186268,272.9656372,-0.6623058319,
272.0230103,10,272.0230103,10,272.0230103,10,
270.9231873,10,270.9231873,10,270.9231873,10,
269.9803772,10,269.9803772,10,269.9803772,10,
269.0374756,10,269.0374756,10,269.0374756,10,
267.9372864,10,267.9372864,10,267.9372864,10,
266.9942017,-0.9948399663,266.9942017,-0.7561677694,266.9942017,-1.012301803,
266.0509949,10,266.0509949,10,266.0509949,10,
264.95047,-0.6176104546,264.95047,-0.8046996593,264.95047,-0.7698252201,
264.0070801,-1.826444626,264.0070801,-1.798173189,264.0070801,-1.633265972,
263.0635681,10,263.0635681,10,263.0635681,10,
261.962738,0.1725302488,261.962738,-0.7665797472,261.962738,-0.613517046,
261.019043,10,261.019043,10,261.019043,10,
260.0752563,10,260.0752563,10,260.0752563,10,
258.9740601,10,258.9740601,10,258.9740601,10,
258.0300903,10,258.0300903,10,258.0300903,10,
256.9286804,10,256.9286804,0.4773703218,256.9286804,0.2622068524,
255.9845123,-0.023258131,255.9845123,-0.05079641566,255.9845123,-0.3486125469,
255.0402527,10,255.0402527,0.167754367,255.0402527,0.09163013846,
253.9385071,10,253.9385071,1.024539709,253.9385071,10,
252.9940643,-2.053863287,252.9940643,-2.229266644,252.9940643,-2.271244049,
252.04953,-0.4676018059,252.04953,-0.4049732983,252.04953,-0.4760957658,
250.947464,10,250.947464,0.5364092588,250.947464,10,
250.0027466,10,250.0027466,10,250.0027466,10,
249.0635529,10,249.0635529,10,249.0635529,10,
247.9677429,10,247.9677429,10,247.9677429,10,
247.0283813,10,247.0283813,10,247.0283813,10,
245.9323425,1.004049063,245.9323425,10,245.9323425,0.7245798111,
244.9927979,10,244.9927979,2.375658512,244.9927979,0.3991488814,
244.0531769,10,244.0531769,10,244.0531769,10,
242.9568329,10,242.9568329,10,242.9568329,10,
242.0170288,1.402247787,242.0170288,1.599963069,242.0170288,0.5859127641,
241.0771332,10,241.0771332,10,241.0771332,10,
239.980484,-0.5658475161,239.980484,-0.7307524085,239.980484,-0.309259057,
239.0404053,0.1433907747,239.0404053,0.1764593422,239.0404053,0.5834312439,
237.9435577,10,237.9435577,10,237.9435577,10,
237.0032959,10,237.0032959,10,237.0032959,10,
236.062973,-0.6038011909,236.062973,-0.8153495193,236.062973,-0.3152039945,
234.9658051,-0.0992892608,234.9658051,-0.7987216711,234.9658051,-0.7979177833,
234.0252991,10,234.0252991,10,234.0252991,10,
232.927948,10,232.927948,10,232.927948,10,
231.9872589,0.2161957771,231.9872589,-0.4142251909,231.9872589,0.3875450194,
231.0464935,-0.5847997665,231.0464935,-0.06360473484,231.0464935,-0.4938780665,
229.9488373,0.2072757632,229.9488373,0.2702251971,229.9488373,0.3769719005,
229.0079041,-0.567307055,229.0079041,-0.4851467907,229.0079041,-0.4931664765,
228.0668945,10,228.0668945,10,228.0668945,10,
226.9689484,-0.9567672014,226.9689484,-0.9512974024,226.9689484,-0.8573718071,
226.0277557,10,226.0277557,10,226.0277557,10,
224.9296112,10,224.9296112,10,224.9296112,10,
223.988266,10,223.988266,10,223.988266,10,
223.0468292,10,223.0468292,10,223.0468292,10,
221.94841,-0.9801532626,221.94841,-0.913846612,221.94841,-1.220849633,
221.0068054,10,221.0068054,10,221.0068054,10,
220.0651398,10,220.0651398,10,220.0651398,10,
218.9664307,10,218.9664307,10,218.9664307,10,
218.0245972,10,218.0245972,10,218.0245972,10,
216.9256897,0.838655591,216.9256897,10,216.9256897,10,
215.9837036,10,215.9837036,0.7496934533,215.9837036,0.5316146612,
215.041626,10,215.041626,10,215.041626,10,
213.9424591,10,213.9424591,3.3966465,213.9424591,1.555891395,
213.0002289,10,213.0002289,10,213.0002289,10,
212.0579224,1.654847026,212.0579224,1.322346568,212.0579224,1.474912286,
210.9584656,10,210.9584656,10,210.9584656,10,
210.0160065,10,210.0160065,10,210.0160065,10,
209.0734711,10,209.0734711,1.82845366,209.0734711,10,
207.9737701,10,207.9737701,10,207.9737701,10,
207.0310822,10,207.0310822,2.630382299,207.0310822,10,
205.9311829,10,205.9311829,10,205.9311829,10,
204.9883423,1.007566094,204.9883423,10,204.9883423,10,
204.0454254,0.6809976697,204.0454254,0.6833999753,204.0454254,0.7393715978,
202.9452667,10,202.9452667,10,202.9452667,10,
202.0022125,10,202.0022125,10,202.0022125,10,
201.059082,-0.02818845026,201.059082,10,201.059082,10,
199.9581604,10,199.9581604,10,199.9581604,10,

